0.1250
0.1083
0.1000
0.1083
0.1250
0.1333
0.1500
0.1500
0.1583
0.1583
0.1417
0.1333
0.1333
0.1250
0.1000
0.1000
0.0833
0.0500
0.0500
0.0667
0.0667
0.0500
0.0333
0.0500
0.0500
0.0417
0.0333
0.0333
0.0250
0.0167
-0.0083
-0.0417
-0.0750
-0.0500
0.0750
0.3417
0.7667
1.2167
1.5667
1.8833
2.1583
2.1333
1.8417
1.3333
0.7667
0.2667
-0.0333
-0.1917
-0.2417
-0.2333
-0.2167
-0.2000
-0.2000
-0.2000
-0.2167
-0.2250
-0.2083
-0.1833
-0.1833
-0.1667
-0.1750
-0.1667
-0.1667
-0.1583
-0.1583
-0.1500
-0.1500
-0.1417
-0.1500
-0.1333
-0.1250
-0.1250
-0.1167
-0.1083
-0.1000
-0.0833
-0.0583
0.0167
0.0917
0.1250
0.1500
0.1583
0.1750
0.1917
0.2000
0.2167
0.2250
0.2417
0.2500
0.2667
0.2833
0.3000
0.3333
0.3500
0.3667
0.3833
0.3917
0.4000
0.4167
0.4333
0.4417
0.4417
0.4417
0.4333
0.4167
0.4000
0.3750
0.3500
0.3500
0.3417
0.3333
0.3167
0.3000
0.2917
0.2750
0.2583
0.2417
0.2250
0.2083
0.1833
0.1583
0.1500
0.1333
0.1167
0.0917
0.0917
0.0917
0.0750
0.0667
0.0583
0.0583
0.0583
0.0500
0.0333
0.0250
0.0083
0.0000
-0.0083
-0.0167
-0.0250
-0.0333
-0.0417
-0.0417
-0.0417
-0.0417
-0.0333
-0.0250
-0.0250
-0.0333
-0.0250
-0.0167
-0.0333
-0.0500
-0.0500
-0.0500
-0.0500
-0.0417
-0.0417
-0.0417
-0.0417
-0.0500
-0.0583
-0.0667
-0.0667
-0.0667
-0.0750
-0.0750
-0.0667
-0.0583
-0.0583
-0.0667
-0.0667
-0.0583
-0.0500
-0.0583
-0.0667
-0.0667
-0.0500
-0.0417
-0.0417
-0.0333
-0.0333
-0.0417
-0.0500
-0.0417
-0.0417
-0.0417
-0.0500
-0.0500
-0.0333
-0.0417
-0.0500
-0.0583
-0.0500
-0.0500
-0.0417
-0.0167
-0.0083
0.0000
0.0000
0.0083
0.0083
0.0083
0.0167
0.0250
0.0250
0.0333
0.0500
0.0500
0.0500
0.0667
0.0750
0.0750
0.0833
0.0833
0.0833
0.0833
0.0667
0.0667
0.0833
0.0750
0.0833
0.1000
0.1083
0.1167
0.1083
0.1000
0.1083
0.1167
0.1000
0.0833
0.0917
0.0833
0.0750
0.0667
0.0750
0.0667
0.0667
0.0667
0.0667
0.0583
0.0667
0.0667
0.0667
0.0667
0.0833
0.0917
0.0917
0.0917
0.0667
0.0500
0.0333
0.0333
0.0333
0.0333
0.0333
0.0417
0.0583
0.0583
0.0833
0.0833
0.1000
0.1000
0.1000
0.1000
0.1083
0.1000
0.0833
0.0667
0.0667
0.0583
0.0583
0.0333
0.0167
-0.0167
-0.0250
-0.0583
-0.0917
-0.1000
-0.1167
-0.1500
-0.2000
-0.2333
-0.2083
-0.0917
0.1917
0.6250
1.0583
1.4000
1.7417
2.0167
2.0000
1.6833
1.1500
0.5500
0.0583
-0.2333
-0.3833
-0.4250
-0.4083
-0.3750
-0.3667
-0.3500
-0.3250
-0.3333
-0.3500
-0.3667
-0.3583
-0.3417
-0.3250
-0.3083
-0.3167
-0.3083
-0.3000
-0.3000
-0.3000
-0.3083
-0.3250
-0.3167
-0.2917
-0.2750
-0.2583
-0.2500
-0.2333
-0.2250
-0.2000
-0.1917
-0.2000
-0.2083
-0.2000
-0.1917
-0.2000
-0.2167
-0.2500
-0.2417
-0.2417
-0.2250
-0.2167
-0.2250
-0.2250
-0.2250
-0.2083
-0.2083
-0.1917
-0.1750
-0.1500
-0.1333
-0.1083
-0.0833
-0.0750
-0.0583
-0.0500
-0.0083
0.0167
0.0250
0.0083
0.0083
0.0083
-0.0083
-0.0167
-0.0250
-0.0333
-0.0417
-0.0583
-0.0583
-0.0750
-0.0833
-0.1083
-0.1417
-0.1583
-0.1667
-0.1500
-0.1417
-0.1583
-0.1750
-0.1917
-0.2083
-0.2250
-0.2333
-0.2500
-0.2583
-0.2667
-0.2667
-0.2750
-0.2833
-0.2833
-0.2917
-0.2750
-0.2583
-0.2417
-0.2417
-0.2250
-0.2167
-0.2000
-0.1917
-0.1750
-0.1500
-0.1417
-0.1333
-0.1250
-0.1167
-0.0833
-0.0667
-0.0500
-0.0667
-0.0750
-0.0833
-0.0750
-0.0750
-0.0750
-0.0917
-0.1083
-0.1083
-0.0917
-0.0917
-0.1083
-0.1083
-0.1083
-0.1083
-0.1167
-0.1333
-0.1417
-0.1500
-0.1667
-0.1833
-0.2000
-0.2250
-0.2250
-0.2000
-0.2000
-0.2000
-0.2167
-0.2250
-0.2083
-0.2250
-0.2417
-0.2417
-0.2167
-0.2167
-0.2083
-0.2083
-0.1917
-0.1917
-0.1833
-0.1917
-0.1833
-0.1667
-0.1583
-0.1583
-0.1500
-0.1417
-0.1417
-0.1417
-0.1250
-0.1333
-0.1333
-0.1167
-0.1250
-0.1333
-0.1417
-0.1417
-0.1333
-0.1250
-0.1250
-0.1333
-0.1417
-0.1500
-0.1417
-0.1500
-0.1500
-0.1583
-0.1667
-0.1667
-0.1500
-0.1417
-0.1417
-0.1417
-0.1500
-0.1583
-0.1500
-0.1417
-0.1417
-0.1583
-0.1750
-0.1917
-0.2000
-0.2083
-0.2333
-0.2500
-0.2583
-0.2833
-0.2750
-0.2833
-0.2917
-0.2917
-0.3000
-0.2917
-0.2833
-0.2833
-0.2917
-0.2917
-0.2917
-0.3083
-0.3083
-0.2917
-0.2667
-0.2417
-0.2250
-0.2167
-0.2083
-0.1917
-0.1833
-0.1750
-0.1750
-0.1750
-0.1583
-0.1417
-0.1417
-0.1667
-0.2000
-0.2167
-0.2167
-0.2250
-0.2083
-0.2000
-0.2083
-0.1917
-0.1833
-0.1750
-0.1750
-0.1917
-0.2250
-0.2667
-0.2667
-0.2000
0.0000
0.3417
0.7333
1.0917
1.3583
1.6417
1.8250
1.7333
1.3750
0.8583
0.3250
-0.0583
-0.2750
-0.3667
-0.3833
-0.3750
-0.3583
-0.3500
-0.3250
-0.3167
-0.3083
-0.3083
-0.3000
-0.2917
-0.2750
-0.2750
-0.2667
-0.2583
-0.2500
-0.2417
-0.2333
-0.2250
-0.2167
-0.2167
-0.2083
-0.2083
-0.2083
-0.2083
-0.2083
-0.2167
-0.2167
-0.2083
-0.2167
-0.2000
-0.1917
-0.1833
-0.1833
-0.1833
-0.1750
-0.1667
-0.1583
-0.1583
-0.1417
-0.1167
-0.1000
-0.0917
-0.0833
-0.0750
-0.0667
-0.0500
-0.0417
-0.0250
-0.0167
-0.0083
0.0083
0.0250
0.0333
0.0417
0.0417
0.0500
0.0500
0.0500
0.0500
0.0417
0.0333
0.0333
0.0250
0.0167
0.0167
0.0167
0.0083
0.0083
0.0000
-0.0167
-0.0333
-0.0417
-0.0500
-0.0667
-0.0750
-0.0833
-0.0833
-0.0917
-0.0917
-0.1000
-0.1083
-0.1167
-0.1167
-0.1167
-0.1167
-0.1167
-0.1083
-0.1250
-0.1417
-0.1500
-0.1250
-0.1083
-0.1000
-0.1000
-0.1083
-0.1167
-0.1167
-0.1167
-0.1167
-0.1167
-0.1083
-0.1167
-0.1167
-0.1167
-0.1167
-0.1167
-0.1250
-0.1250
-0.1250
-0.1250
-0.1250
-0.1333
-0.1417
-0.1333
-0.1333
-0.1333
-0.1417
-0.1417
-0.1333
-0.1417
-0.1500
-0.1500
-0.1417
-0.1500
-0.1583
-0.1667
-0.1500
-0.1417
-0.1500
-0.1500
-0.1500
-0.1417
-0.1333
-0.1250
-0.1250
-0.1250
-0.1250
-0.1167
-0.1250
-0.1250
-0.1250
-0.1333
-0.1333
-0.1333
-0.1333
-0.1250
-0.1167
-0.1083
-0.1083
-0.1167
-0.1250
-0.1250
-0.1167
-0.1083
-0.1083
-0.1167
-0.1083
-0.1083
-0.1083
-0.1167
-0.1083
-0.1000
-0.0917
-0.0917
-0.1000
-0.1000
-0.1000
-0.0917
-0.1000
-0.1000
-0.0917
-0.0917
-0.0917
-0.0917
-0.0833
-0.0750
-0.0500
-0.0500
-0.0500
-0.0583
-0.0583
-0.0583
-0.0583
-0.0583
-0.0500
-0.0417
-0.0333
-0.0417
-0.0583
-0.0667
-0.0583
-0.0583
-0.0583
-0.0500
-0.0500
-0.0583
-0.0583
-0.0583
-0.0500
-0.0500
-0.0583
-0.0667
-0.0750
-0.0833
-0.0833
-0.0750
-0.0667
-0.0500
-0.0333
-0.0333
-0.0167
-0.0083
-0.0083
-0.0083
0.0000
-0.0083
-0.0083
-0.0083
-0.0083
-0.0250
-0.0417
-0.0500
-0.0583
-0.0750
-0.0750
-0.0583
-0.0417
-0.0333
-0.0500
-0.0500
-0.0583
-0.0667
-0.0833
-0.1000
-0.0917
-0.0333
0.1583
0.4667
0.8750
1.2667
1.5917
1.9000
2.0417
1.8667
1.4833
0.9250
0.3417
-0.1167
-0.3250
-0.3833
-0.3750
-0.3417
-0.3083
-0.2833
-0.2333
-0.2083
-0.2083
-0.2083
-0.2083
-0.2083
-0.1917
-0.2000
-0.2000
-0.1833
-0.1750
-0.1833
-0.1667
-0.1583
-0.1583
-0.1500
-0.1417
-0.1250
-0.1250
-0.1333
-0.1250
-0.1250
-0.1250
-0.1167
-0.1000
-0.0917
-0.0750
-0.0750
-0.0667
-0.0667
-0.0500
-0.0500
-0.0500
-0.0333
-0.0250
-0.0083
0.0083
0.0167
0.0250
0.0417
0.0583
0.0750
0.0917
0.1083
0.1333
0.1500
0.1667
0.1833
0.2000
0.2083
0.2167
0.2083
0.2083
0.2083
0.2083
0.2000
0.1917
0.1833
0.1750
0.1750
0.1667
0.1500
0.1333
0.1250
0.1083
0.0833
0.0667
0.0417
0.0250
0.0167
0.0000
-0.0250
-0.0333
-0.0417
-0.0500
-0.0583
-0.0667
-0.0667
-0.0667
-0.0750
-0.0750
-0.0750
-0.0833
-0.0917
-0.0833
-0.0833
-0.0833
-0.0833
-0.0750
-0.0750
-0.0833
-0.0833
-0.0833
-0.0833
-0.0833
-0.0833
-0.0833
-0.0750
-0.0833
-0.0917
-0.0917
-0.0833
-0.0833
-0.0833
-0.0833
-0.0917
-0.1000
-0.1000
-0.1083
-0.1250
-0.1250
-0.1250
-0.1250
-0.1250
-0.1250
-0.1167
-0.1250
-0.1333
-0.1417
-0.1500
-0.1500
-0.1417
-0.1417
-0.1500
-0.1500
-0.1500
-0.1500
-0.1417
-0.1417
-0.1500
-0.1500
-0.1583
-0.1500
-0.1500
-0.1500
-0.1583
-0.1667
-0.1667
-0.1667
-0.1583
-0.1750
-0.1833
-0.1750
-0.1583
-0.1583
-0.1500
-0.1583
-0.1667
-0.1667
-0.1667
-0.1667
-0.1667
-0.1667
-0.1667
-0.1667
-0.1667
-0.1667
-0.1667
-0.1583
-0.1667
-0.1750
-0.1750
-0.1667
-0.1667
-0.1750
-0.1750
-0.1750
-0.1750
-0.1750
-0.1750
-0.1750
-0.1750
-0.1750
-0.1750
-0.1750
-0.1750
-0.1750
-0.1833
-0.1833
-0.1750
-0.1750
-0.1750
-0.1750
-0.1750
-0.1750
-0.1750
-0.1750
-0.1750
-0.1833
-0.1833
-0.1833
-0.1750
-0.1583
-0.1417
-0.1250
-0.1167
-0.1083
-0.1000
-0.1083
-0.1083
-0.1000
-0.1083
-0.1167
-0.1250
-0.1417
-0.1500
-0.1583
-0.1750
-0.1833
-0.1917
-0.1833
-0.1750
-0.1750
-0.1667
-0.1667
-0.1750
-0.2083
-0.2417
-0.2417
-0.1750
0.0333
0.3667
0.7917
1.1667
1.4583
1.7417
1.9000
1.7667
1.3833
0.8333
0.2750
-0.1333
-0.3583
-0.4583
-0.4667
-0.4333
-0.4000
-0.3833
-0.3583
-0.3417
-0.3417
-0.3417
-0.3417
-0.3500
-0.3417
-0.3417
-0.3417
-0.3333
-0.3333
-0.3333
-0.3250
-0.3167
-0.3167
-0.3083
-0.3000
-0.3000
-0.3000
-0.2917
-0.2833
-0.2917
-0.2750
-0.2667
-0.2667
-0.2583
-0.2583
-0.2583
-0.2500
-0.2500
-0.2417
-0.2417
-0.2250
-0.2250
-0.2167
-0.2083
-0.1917
-0.1833
-0.1833
-0.1667
-0.1500
-0.1417
-0.1333
-0.1167
-0.1000
-0.0833
-0.0750
-0.0583
-0.0500
-0.0417
-0.0417
-0.0333
-0.0333
-0.0333
-0.0417
-0.0417
-0.0583
-0.0583
-0.0667
-0.0750
-0.0833
-0.0833
-0.0917
-0.1083
-0.1250
-0.1333
-0.1583
-0.1667
-0.1750
-0.1917
-0.2083
-0.2250
-0.2417
-0.2500
-0.2583
-0.2667
-0.2750
-0.2750
-0.2750
-0.2833
-0.2833
-0.2833
-0.2833
-0.2833
-0.2833
-0.2917
-0.2917
-0.2833
-0.2833
-0.2833
-0.2833
-0.2917
-0.2833
-0.2917
-0.2917
-0.2917
-0.2917
-0.2833
-0.2917
-0.2917
-0.3000
-0.3000
-0.3083
-0.3167
-0.3167
-0.3250
-0.3167
-0.3250
-0.3250
-0.3333
-0.3250
-0.3250
-0.3333
-0.3333
-0.3333
-0.3333
-0.3417
-0.3417
-0.3417
-0.3417
-0.3417
-0.3417
-0.3500
-0.3500
-0.3583
-0.3583
-0.3583
-0.3583
-0.3583
-0.3583
-0.3583
-0.3583
-0.3667
-0.3583
-0.3583
-0.3583
-0.3500
-0.3583
-0.3583
-0.3583
-0.3583
-0.3583
-0.3500
-0.3500
-0.3500
-0.3500
-0.3417
-0.3417
-0.3500
-0.3667
-0.3667
-0.3750
-0.3750
-0.3667
-0.3667
-0.3667
-0.3583
-0.3583
-0.3583
-0.3500
-0.3500
-0.3583
-0.3500
-0.3583
-0.3583
-0.3500
-0.3500
-0.3417
-0.3417
-0.3417
-0.3417
-0.3333
-0.3333
-0.3333
-0.3417
-0.3333
-0.3333
-0.3333
-0.3333
-0.3333
-0.3250
-0.3250
-0.3333
-0.3417
-0.3417
-0.3500
-0.3500
-0.3500
-0.3500
-0.3500
-0.3333
-0.3167
-0.3083
-0.2917
-0.2750
-0.2667
-0.2667
-0.2667
-0.2750
-0.2750
-0.2750
-0.2917
-0.3000
-0.3083
-0.3167
-0.3250
-0.3250
-0.3250
-0.3250
-0.3250
-0.3167
-0.3167
-0.3083
-0.3083
-0.3250
-0.3583
-0.3917
-0.3583
-0.2333
0.0333
0.4250
0.7917
1.0833
1.3250
1.5917
1.6000
1.3417
0.8667
0.3500
-0.0750
-0.3333
-0.4833
-0.5250
-0.5333
-0.5083
-0.4917
-0.4833
-0.4667
-0.4750
-0.4750
-0.4750
-0.4667
-0.4583
-0.4667
-0.4583
-0.4583
-0.4583
-0.4500
-0.4417
-0.4417
-0.4417
-0.4417
-0.4417
-0.4333
-0.4250
-0.4083
-0.4083
-0.4000
-0.3917
-0.3833
-0.3750
-0.3667
-0.3583
-0.3583
-0.3500
-0.3417
-0.3333
-0.3250
-0.3250
-0.3083
-0.3083
-0.3000
-0.2917
-0.2833
-0.2833
-0.2667
-0.2583
-0.2417
-0.2333
-0.2250
-0.2083
-0.2000
-0.1750
-0.1583
-0.1500
-0.1417
-0.1250
-0.1167
-0.1167
-0.1250
-0.1250
-0.1250
-0.1250
-0.1333
-0.1333
-0.1417
-0.1417
-0.1417
-0.1583
-0.1750
-0.1833
-0.2000
-0.2167
-0.2250
-0.2333
-0.2500
-0.2583
-0.2750
-0.2917
-0.3000
-0.3000
-0.3083
-0.3167
-0.3167
-0.3250
-0.3333
-0.3333
-0.3250
-0.3333
-0.3250
-0.3250
-0.3250
-0.3250
-0.3250
-0.3167
-0.3167
-0.3167
-0.3083
-0.3083
-0.3167
-0.3167
-0.3250
-0.3167
-0.3167
-0.3083
-0.3083
-0.3167
-0.3250
-0.3417
-0.3417
-0.3333
-0.3250
-0.3250
-0.3333
-0.3333
-0.3250
-0.3333
-0.3333
-0.3500
-0.3583
-0.3583
-0.3500
-0.3333
-0.3417
-0.3500
-0.3583
-0.3500
-0.3500
-0.3583
-0.3583
-0.3583
-0.3583
-0.3500
-0.3417
-0.3583
-0.3667
-0.3667
-0.3583
-0.3500
-0.3500
-0.3583
-0.3667
-0.3583
-0.3500
-0.3500
-0.3500
-0.3333
-0.3333
-0.3250
-0.3167
-0.3167
-0.3167
-0.3083
-0.3167
-0.3250
-0.3250
-0.3167
-0.3167
-0.3250
-0.3333
-0.3250
-0.3333
-0.3250
-0.3083
-0.2917
-0.3000
-0.3083
-0.3000
-0.2833
-0.3000
-0.3167
-0.3083
-0.3167
-0.3250
-0.3083
-0.3000
-0.2917
-0.3083
-0.3250
-0.3250
-0.3250
-0.3167
-0.3083
-0.3083
-0.3083
-0.3083
-0.3083
-0.3083
-0.3000
-0.3000
-0.3083
-0.3167
-0.3083
-0.3000
-0.3083
-0.3000
-0.2917
-0.2750
-0.2667
-0.2500
-0.2167
-0.2083
-0.2000
-0.2167
-0.2167
-0.2083
-0.2083
-0.2167
-0.2250
-0.2417
-0.2500
-0.2583
-0.2500
-0.2667
-0.2667
-0.2667
-0.2667
-0.2667
-0.2667
-0.2583
-0.2667
-0.2917
-0.3000
-0.3083
-0.2750
-0.1333
0.1500
0.5167
0.9250
1.2750
1.6000
1.8333
1.7333
1.3917
0.8667
0.2833
-0.2417
-0.5250
-0.6333
-0.6500
-0.6083
-0.5667
-0.5333
-0.5000
-0.4667
-0.4417
-0.4417
-0.4333
-0.4333
-0.4583
-0.4583
-0.4417
-0.4417
-0.4333
-0.4250
-0.4250
-0.4250
-0.4167
-0.4083
-0.3917
-0.3917
-0.3833
-0.3833
-0.3833
-0.3917
-0.4083
-0.4000
-0.4083
-0.4000
-0.3917
-0.3833
-0.3833
-0.3750
-0.3750
-0.3833
-0.3917
-0.4000
-0.4083
-0.3917
-0.3750
-0.3833
-0.3750
-0.3667
-0.3583
-0.3500
-0.3333
-0.3417
-0.3333
-0.3167
-0.3000
-0.2833
-0.2667
-0.2500
-0.2500
-0.2417
-0.2417
-0.2417
-0.2500
-0.2500
-0.2583
-0.2583
-0.2667
-0.2750
-0.2833
-0.2917
-0.2917
-0.3083
-0.3333
-0.3500
-0.3667
-0.3833
-0.4000
-0.4083
-0.4333
-0.4500
-0.4500
-0.4500
-0.4500
-0.4667
-0.4750
-0.4750
-0.4750
-0.4750
-0.4917
-0.5000
-0.4917
-0.4833
-0.4833
-0.4917
-0.5000
-0.4917
-0.4917
-0.4917
-0.4750
-0.4750
-0.4750
-0.4667
-0.4667
-0.4667
-0.4583
-0.4583
-0.4583
-0.4583
-0.4667
-0.4667
-0.4750
-0.4750
-0.4667
-0.4667
-0.4667
-0.4750
-0.4833
-0.4833
-0.4750
-0.4750
-0.4667
-0.4833
-0.5083
-0.5083
-0.4917
-0.4917
-0.4917
-0.4750
-0.4750
-0.4750
-0.4667
-0.4667
-0.4667
-0.4667
-0.4583
-0.4417
-0.4500
-0.4583
-0.4667
-0.4667
-0.4583
-0.4583
-0.4417
-0.4417
-0.4417
-0.4333
-0.4250
-0.4333
-0.4333
-0.4417
-0.4417
-0.4417
-0.4417
-0.4417
-0.4333
-0.4333
-0.4333
-0.4417
-0.4500
-0.4333
-0.4333
-0.4333
-0.4250
-0.4250
-0.4250
-0.4250
-0.4167
-0.4167
-0.4250
-0.4167
-0.4167
-0.4083
-0.4083
-0.4167
-0.4083
-0.4000
-0.4000
-0.3917
-0.3917
-0.4000
-0.4000
-0.4000
-0.4000
-0.4000
-0.4000
-0.4000
-0.4083
-0.4000
-0.4000
-0.4000
-0.4167
-0.4083
-0.3917
-0.3833
-0.3833
-0.3667
-0.3583
-0.3417
-0.3417
-0.3333
-0.3333
-0.3250
-0.3333
-0.3333
-0.3583
-0.3667
-0.3917
-0.4000
-0.4000
-0.4000
-0.3750
-0.3667
-0.3667
-0.3750
-0.3833
-0.3833
-0.3833
-0.3750
-0.3917
-0.4167
-0.4167
-0.3500
-0.1750
0.1167
0.5083
0.8667
1.1833
1.4750
1.5917
1.4083
0.9917
0.4750
-0.0250
-0.4167
-0.6083
-0.6750
-0.6667
-0.6250
-0.5750
-0.5417
-0.5167
-0.5083
-0.5000
-0.5000
-0.4917
-0.4833
-0.4750
-0.4667
-0.4583
-0.4583
-0.4667
-0.4583
-0.4500
-0.4333
-0.4250
-0.4167
-0.4167
-0.4083
-0.4167
-0.4083
-0.4000
-0.4000
-0.3917
-0.3833
-0.3833
-0.3917
-0.3833
-0.3750
-0.3667
-0.3583
-0.3500
-0.3333
-0.3333
-0.3333
-0.3333
-0.3167
-0.3083
-0.2917
-0.2833
-0.2667
-0.2500
-0.2333
-0.2167
-0.2000
-0.1750
-0.1667
-0.1500
-0.1250
-0.1083
-0.0917
-0.0750
-0.0667
-0.0583
-0.0667
-0.0750
-0.0750
-0.0917
-0.0917
-0.0917
-0.1083
-0.1083
-0.1250
-0.1333
-0.1500
-0.1583
-0.1667
-0.1833
-0.2000
-0.2000
-0.2167
-0.2417
-0.2583
-0.2750
-0.3000
-0.3083
-0.3167
-0.3167
-0.3083
-0.3000
-0.3000
-0.3167
-0.3167
-0.3250
-0.3167
-0.3250
-0.3167
-0.3167
-0.3083
-0.3083
-0.3000
-0.2917
-0.2917
-0.2750
-0.2667
-0.2583
-0.2583
-0.2667
-0.2667
-0.2667
-0.2667
-0.2667
-0.2667
-0.2667
-0.2583
-0.2500
-0.2500
-0.2667
-0.2500
-0.2583
-0.2667
-0.2750
-0.2667
-0.2667
-0.2667
-0.2750
-0.2667
-0.2667
-0.2667
-0.2750
-0.2917
-0.2917
-0.2833
-0.2833
-0.2750
-0.2583
-0.2583
-0.2667
-0.2833
-0.2667
-0.2583
-0.2667
-0.2667
-0.2667
-0.2667
-0.2667
-0.2583
-0.2583
-0.2667
-0.2667
-0.2750
-0.2750
-0.2750
-0.2750
-0.2667
-0.2667
-0.2750
-0.2833
-0.2833
-0.2667
-0.2583
-0.2500
-0.2500
-0.2750
-0.2917
-0.2917
-0.3083
-0.3167
-0.3000
-0.2833
-0.2667
-0.2583
-0.2583
-0.2583
-0.2583
-0.2667
-0.2667
-0.2750
-0.2667
-0.2667
-0.2833
-0.3167
-0.3167
-0.3083
-0.3000
-0.2917
-0.2750
-0.2750
-0.2667
-0.2583
-0.2750
-0.2583
-0.2833
-0.3083
-0.3083
-0.2750
-0.2583
-0.3000
-0.3083
-0.3083
-0.2917
-0.2583
-0.2167
-0.2000
-0.1833
-0.2167
-0.2583
-0.2583
-0.2500
-0.2500
-0.2583
-0.2583
-0.2667
-0.2750
-0.3000
-0.3167
-0.3167
-0.3083
-0.2833
-0.2750
-0.2583
-0.2750
-0.2750
-0.2833
-0.3167
-0.3583
-0.3833
-0.3583
-0.1917
0.1167
0.5167
0.8917
1.2167
1.5250
1.7083
1.6000
1.2500
0.7333
0.2167
-0.1917
-0.4000
-0.5000
-0.5167
-0.4833
-0.4500
-0.4417
-0.4250
-0.4250
-0.4333
-0.4333
-0.4167
-0.4000
-0.3917
-0.3833
-0.3833
-0.3667
-0.3750
-0.3667
-0.3583
-0.3583
-0.3583
-0.3583
-0.3667
-0.3750
-0.3667
